count,stop,target,target_hit_rate,stop_hit_rate,ambiguous_both_hit_rate,screening_score
29,60,80,0.9310344827586207,0.7241379310344828,0.6551724137931034,17.931034482758623
29,60,100,0.9310344827586207,0.7241379310344828,0.6551724137931034,23.448275862068964
29,60,120,0.9310344827586207,0.7241379310344828,0.6551724137931034,28.965517241379313
29,60,150,0.896551724137931,0.7241379310344828,0.6206896551724138,35.17241379310345
29,60,180,0.896551724137931,0.7241379310344828,0.6206896551724138,43.44827586206897
29,60,200,0.896551724137931,0.7241379310344828,0.6206896551724138,48.96551724137931
29,60,250,0.8620689655172413,0.7241379310344828,0.5862068965517241,60.68965517241379
29,60,300,0.8275862068965517,0.7241379310344828,0.5517241379310345,72.41379310344828
29,60,350,0.8275862068965517,0.7241379310344828,0.5517241379310345,86.20689655172413
29,60,400,0.7931034482758621,0.7241379310344828,0.5172413793103449,97.93103448275862
29,60,500,0.6896551724137931,0.7241379310344828,0.41379310344827586,119.31034482758619
29,60,600,0.5172413793103449,0.7241379310344828,0.2413793103448276,136.55172413793105
29,80,80,0.9310344827586207,0.6206896551724138,0.5517241379310345,24.82758620689655
29,80,100,0.9310344827586207,0.6206896551724138,0.5517241379310345,32.41379310344827
29,80,120,0.9310344827586207,0.6206896551724138,0.5517241379310345,40.0
29,80,150,0.896551724137931,0.6206896551724138,0.5172413793103449,48.62068965517241
29,80,180,0.896551724137931,0.6206896551724138,0.5172413793103449,59.99999999999999
29,80,200,0.896551724137931,0.6206896551724138,0.5172413793103449,67.58620689655172
29,80,250,0.8620689655172413,0.6206896551724138,0.4827586206896552,83.79310344827584
29,80,300,0.8275862068965517,0.6206896551724138,0.4482758620689655,100.0
29,80,350,0.8275862068965517,0.6206896551724138,0.4482758620689655,118.96551724137932
29,80,400,0.7931034482758621,0.6206896551724138,0.41379310344827586,135.17241379310343
29,80,500,0.6896551724137931,0.6206896551724138,0.3448275862068966,161.04102259215222
29,80,600,0.5172413793103449,0.6206896551724138,0.1724137931034483,181.730677764566
29,100,80,0.9310344827586207,0.5172413793103449,0.4482758620689655,31.724137931034484
29,100,100,0.9310344827586207,0.5172413793103449,0.4482758620689655,41.37931034482759
29,100,120,0.9310344827586207,0.5172413793103449,0.4482758620689655,51.0344827586207
29,100,150,0.896551724137931,0.5172413793103449,0.41379310344827586,62.06896551724139
29,100,180,0.896551724137931,0.5172413793103449,0.41379310344827586,76.55172413793105
29,100,200,0.896551724137931,0.5172413793103449,0.41379310344827586,86.20689655172413
29,100,250,0.8620689655172413,0.5172413793103449,0.3793103448275862,106.89655172413794
29,100,300,0.8275862068965517,0.5172413793103449,0.3448275862068966,127.58620689655174
29,100,350,0.8275862068965517,0.5172413793103449,0.3448275862068966,151.7241379310345
29,100,400,0.7931034482758621,0.5172413793103449,0.3103448275862069,172.41379310344826
29,100,500,0.6896551724137931,0.5172413793103449,0.2413793103448276,207.24791914387635
29,100,600,0.5172413793103449,0.5172413793103449,0.06896551724137931,234.83412604042803
29,120,80,0.9310344827586207,0.41379310344827586,0.3448275862068966,38.62068965517241
29,120,100,0.9310344827586207,0.41379310344827586,0.3448275862068966,50.34482758620689
29,120,120,0.9310344827586207,0.41379310344827586,0.3448275862068966,62.068965517241374
29,120,150,0.896551724137931,0.41379310344827586,0.3103448275862069,75.51724137931035
29,120,180,0.896551724137931,0.41379310344827586,0.3103448275862069,93.10344827586206
29,120,200,0.896551724137931,0.41379310344827586,0.3103448275862069,104.82758620689654
29,120,250,0.8620689655172413,0.41379310344827586,0.27586206896551724,129.99999999999997
29,120,300,0.8275862068965517,0.41379310344827586,0.2413793103448276,155.17241379310343
29,120,350,0.8275862068965517,0.41379310344827586,0.2413793103448276,184.48275862068965
29,120,400,0.7931034482758621,0.41379310344827586,0.20689655172413793,209.65517241379308
29,120,500,0.6896551724137931,0.41379310344827586,0.13793103448275862,253.45481569560044
29,120,600,0.5172413793103449,0.41379310344827586,0.034482758620689655,276.2265160523187
29,150,80,0.9310344827586207,0.3793103448275862,0.3103448275862069,39.310344827586206
29,150,100,0.9310344827586207,0.3793103448275862,0.3103448275862069,51.724137931034484
29,150,120,0.9310344827586207,0.3793103448275862,0.3103448275862069,64.13793103448276
29,150,150,0.896551724137931,0.3793103448275862,0.27586206896551724,77.58620689655173
29,150,180,0.896551724137931,0.3793103448275862,0.27586206896551724,96.20689655172414
29,150,200,0.896551724137931,0.3793103448275862,0.27586206896551724,108.62068965517241
29,150,250,0.8620689655172413,0.3793103448275862,0.2413793103448276,134.48275862068965
29,150,300,0.8275862068965517,0.3793103448275862,0.20689655172413793,160.34482758620692
29,150,350,0.8275862068965517,0.3793103448275862,0.20689655172413793,191.3793103448276
29,150,400,0.7931034482758621,0.3793103448275862,0.1724137931034483,217.24137931034483
29,150,500,0.6896551724137931,0.3793103448275862,0.10344827586206896,262.4203329369798
29,150,600,0.5172413793103449,0.3793103448275862,0.034482758620689655,280.71581450653986
29,180,80,0.9310344827586207,0.27586206896551724,0.20689655172413793,45.51724137931034
29,180,100,0.9310344827586207,0.27586206896551724,0.20689655172413793,59.99999999999999
29,180,120,0.9310344827586207,0.27586206896551724,0.20689655172413793,74.48275862068967
29,180,150,0.896551724137931,0.27586206896551724,0.1724137931034483,90.0
29,180,180,0.896551724137931,0.27586206896551724,0.1724137931034483,111.72413793103448
29,180,200,0.896551724137931,0.27586206896551724,0.1724137931034483,126.20689655172413
29,180,250,0.8620689655172413,0.27586206896551724,0.13793103448275862,156.20689655172416
29,180,300,0.8275862068965517,0.27586206896551724,0.10344827586206896,186.20689655172413
29,180,350,0.8275862068965517,0.27586206896551724,0.10344827586206896,222.41379310344826
29,180,400,0.7931034482758621,0.27586206896551724,0.10344827586206896,255.52378121284187
29,180,500,0.6896551724137931,0.27586206896551724,0.06896551724137931,305.192033293698
29,180,600,0.5172413793103449,0.27586206896551724,0.0,324.86682520808563
29,200,80,0.9310344827586207,0.27586206896551724,0.20689655172413793,44.13793103448276
29,200,100,0.9310344827586207,0.27586206896551724,0.20689655172413793,58.62068965517241
29,200,120,0.9310344827586207,0.27586206896551724,0.20689655172413793,73.10344827586208
29,200,150,0.896551724137931,0.27586206896551724,0.1724137931034483,87.93103448275862
29,200,180,0.896551724137931,0.27586206896551724,0.1724137931034483,109.6551724137931
29,200,200,0.896551724137931,0.27586206896551724,0.1724137931034483,124.13793103448275
29,200,250,0.8620689655172413,0.27586206896551724,0.13793103448275862,153.44827586206898
29,200,300,0.8275862068965517,0.27586206896551724,0.10344827586206896,182.75862068965517
29,200,350,0.8275862068965517,0.27586206896551724,0.10344827586206896,218.9655172413793
29,200,400,0.7931034482758621,0.27586206896551724,0.10344827586206896,252.07550535077291
29,200,500,0.6896551724137931,0.27586206896551724,0.06896551724137931,301.0541022592152
29,200,600,0.5172413793103449,0.27586206896551724,0.0,319.3495838287753
29,220,80,0.9310344827586207,0.2413793103448276,0.1724137931034483,45.51724137931035
29,220,100,0.9310344827586207,0.2413793103448276,0.1724137931034483,60.689655172413794
29,220,120,0.9310344827586207,0.2413793103448276,0.1724137931034483,75.86206896551724
29,220,150,0.896551724137931,0.2413793103448276,0.13793103448275862,91.03448275862068
29,220,180,0.896551724137931,0.2413793103448276,0.13793103448275862,113.79310344827584
29,220,200,0.896551724137931,0.2413793103448276,0.13793103448275862,128.9655172413793
29,220,250,0.8620689655172413,0.2413793103448276,0.13793103448275862,168.97205707491082
29,220,300,0.8275862068965517,0.2413793103448276,0.10344827586206896,197.59274673008323
29,220,350,0.8275862068965517,0.2413793103448276,0.10344827586206896,233.79964328180736
29,220,400,0.7931034482758621,0.2413793103448276,0.10344827586206896,266.909631391201
29,220,500,0.6896551724137931,0.2413793103448276,0.06896551724137931,315.1985731272295
29,220,600,0.5172413793103449,0.2413793103448276,0.0,332.1147443519619
29,250,80,0.9310344827586207,0.1724137931034483,0.10344827586206896,48.96551724137932
29,250,100,0.9310344827586207,0.1724137931034483,0.10344827586206896,65.51724137931035
29,250,120,0.9310344827586207,0.1724137931034483,0.10344827586206896,82.06896551724138
29,250,150,0.896551724137931,0.1724137931034483,0.06896551724137931,98.27586206896552
29,250,180,0.896551724137931,0.1724137931034483,0.06896551724137931,123.10344827586206
29,250,200,0.896551724137931,0.1724137931034483,0.06896551724137931,139.6551724137931
29,250,250,0.8620689655172413,0.1724137931034483,0.06896551724137931,183.10998810939358
29,250,300,0.8275862068965517,0.1724137931034483,0.06896551724137931,223.11652794292507
29,250,350,0.8275862068965517,0.1724137931034483,0.06896551724137931,261.04756242568374
29,250,400,0.7931034482758621,0.1724137931034483,0.06896551724137931,295.8816884661117
29,250,500,0.6896551724137931,0.1724137931034483,0.034482758620689655,346.58442330558853
29,250,600,0.5172413793103449,0.1724137931034483,0.0,363.5071343638526
29,300,80,0.9310344827586207,0.10344827586206896,0.034482758620689655,51.03448275862068
29,300,100,0.9310344827586207,0.10344827586206896,0.034482758620689655,68.96551724137932
29,300,120,0.9310344827586207,0.10344827586206896,0.034482758620689655,86.89655172413794
29,300,150,0.896551724137931,0.10344827586206896,0.034482758620689655,119.3168846611177
29,300,180,0.896551724137931,0.10344827586206896,0.034482758620689655,145.17895362663495
29,300,200,0.896551724137931,0.10344827586206896,0.034482758620689655,162.42033293697978
29,300,250,0.8620689655172413,0.10344827586206896,0.034482758620689655,207.59928656361473
29,300,300,0.8275862068965517,0.10344827586206896,0.034482758620689655,249.32996432818072
29,300,350,0.8275862068965517,0.10344827586206896,0.034482758620689655,288.98513674197386
29,300,400,0.7931034482758621,0.10344827586206896,0.034482758620689655,325.54340071343637
29,300,500,0.6896551724137931,0.10344827586206896,0.0,377.9702734839477
29,300,600,0.5172413793103449,0.10344827586206896,0.0,396.96848989298456
